Wavelength [microns]  Transmission [unitless]
     0.294100                0.00000
     0.294341            0.000405515
     0.294645            0.000877718
     0.295003             0.00141268
     0.295406             0.00200648
     0.295844             0.00265520
     0.296310             0.00335490
     0.296793             0.00410166
     0.297284             0.00489155
     0.297776             0.00572066
     0.298257             0.00658505
     0.298721             0.00748080
     0.299156             0.00840399
     0.299555             0.00935069
     0.299909              0.0103170
     0.300211              0.0112400
     0.300469              0.0119823
     0.300692              0.0125890
     0.300886              0.0131155
     0.301059              0.0136173
     0.301217              0.0141496
     0.301367              0.0147679
     0.301517              0.0155276
     0.301674              0.0164840
     0.301845              0.0176926
     0.302037              0.0192087
     0.302256              0.0210878
     0.302511              0.0233852
     0.302808              0.0261562
     0.303156              0.0294742
     0.303558              0.0334856
     0.304010              0.0381298
     0.304501              0.0433060
     0.305024              0.0489136
     0.305569              0.0548518
     0.306128              0.0610198
     0.306692              0.0673168
     0.307253              0.0736422
     0.307801              0.0798952
     0.308327              0.0859749
     0.308824              0.0917808
     0.309282              0.0972120
     0.309693               0.102168
     0.310047               0.106546
     0.310338               0.110182
     0.310571               0.113121
     0.310757               0.115505
     0.310905               0.117475
     0.311024               0.119175
     0.311126               0.120747
     0.311219               0.122332
     0.311313               0.124073
     0.311418               0.126111
     0.311544               0.128590
     0.311700               0.131651
     0.311897               0.135437
     0.312144               0.140089
     0.312451               0.145751
     0.312826               0.152640
     0.313265               0.160829
     0.313758               0.170114
     0.314296               0.180288
     0.314867               0.191144
     0.315461               0.202474
     0.316069               0.214072
     0.316680               0.225730
     0.317284               0.237240
     0.317871               0.248397
     0.318430               0.258993
     0.318952               0.268820
     0.319426               0.277672
     0.319842               0.285341
     0.320191               0.291624
     0.320474               0.296512
     0.320701               0.300212
     0.320882               0.302942
     0.321027               0.304921
     0.321147               0.306365
     0.321250               0.307494
     0.321348               0.308526
     0.321450               0.309677
     0.321565               0.311168
     0.321705               0.313214
     0.321878               0.316036
     0.322096               0.319850
     0.322368               0.324875
     0.322703               0.331324
     0.323102               0.339213
     0.323557               0.348345
     0.324058               0.358521
     0.324596               0.369539
     0.325162               0.381198
     0.325747               0.393299
     0.326341               0.405640
     0.326936               0.418021
     0.327522               0.430242
     0.328090               0.442101
     0.328631               0.453398
     0.329136               0.463932
     0.329595               0.473503
     0.330000               0.481910
     0.330347               0.489093
     0.330646               0.495237
     0.330902               0.500510
     0.331126               0.505078
     0.331323               0.509109
     0.331502               0.512771
     0.331670               0.516231
     0.331836               0.519657
     0.332006               0.523216
     0.332189               0.527076
     0.332393               0.531403
     0.332624               0.536367
     0.332891               0.542133
     0.333202               0.548870
     0.333561               0.556720
     0.333958               0.565618
     0.334389               0.575401
     0.334847               0.585907
     0.335328               0.596972
     0.335826               0.608433
     0.336336               0.620127
     0.336851               0.631891
     0.337367               0.643562
     0.337878               0.654976
     0.338379               0.665971
     0.338864               0.676384
     0.339327               0.686051
     0.339764               0.694808
     0.340171               0.702528
     0.340555               0.709404
     0.340922               0.715576
     0.341275               0.721138
     0.341615               0.726187
     0.341945               0.730815
     0.342267               0.735118
     0.342584               0.739190
     0.342898               0.743126
     0.343211               0.747021
     0.343526               0.750970
     0.343845               0.755066
     0.344170               0.759405
     0.344505               0.764081
     0.344850               0.769185
     0.345197               0.774569
     0.345540               0.780095
     0.345881               0.785742
     0.346222               0.791488
     0.346564               0.797309
     0.346908               0.803184
     0.347256               0.809091
     0.347610               0.815008
     0.347971               0.820911
     0.348341               0.826779
     0.348721               0.832590
     0.349113               0.838321
     0.349518               0.843951
     0.349939               0.849456
     0.350383               0.854912
     0.350860               0.860457
     0.351366               0.866059
     0.351892               0.871682
     0.352434               0.877293
     0.352984               0.882857
     0.353536               0.888340
     0.354085               0.893707
     0.354624               0.898923
     0.355146               0.903955
     0.355646               0.908768
     0.356116               0.913327
     0.356552               0.917598
     0.356945               0.921547
     0.357288               0.925129
     0.357564               0.928301
     0.357782               0.931105
     0.357954               0.933592
     0.358092               0.935812
     0.358206               0.937814
     0.358310               0.939649
     0.358414               0.941367
     0.358530               0.943019
     0.358670               0.944653
     0.358846               0.946322
     0.359068               0.948074
     0.359349               0.949960
     0.359700               0.952030
     0.360132               0.954377
     0.360635               0.957705
     0.361199               0.962033
     0.361816               0.967083
     0.362478               0.972575
     0.363179               0.978231
     0.363910               0.983772
     0.364665               0.988919
     0.365437               0.993394
     0.366217               0.996919
     0.367000               0.999213
     0.367776                1.00000
     0.368540               0.998999
     0.369284               0.995933
     0.370000               0.990523
     0.370712               0.982439
     0.371446               0.971769
     0.372194               0.958854
     0.372952               0.944039
     0.373715               0.927666
     0.374476               0.910079
     0.375231               0.891621
     0.375973               0.872635
     0.376696               0.853465
     0.377397               0.834453
     0.378068               0.815944
     0.378705               0.798279
     0.379301               0.781803
     0.379852               0.766859
     0.380351               0.753586
     0.380798               0.741498
     0.381199               0.730366
     0.381560               0.719988
     0.381889               0.710161
     0.382190               0.700682
     0.382472               0.691348
     0.382739               0.681957
     0.382998               0.672306
     0.383257               0.662192
     0.383520               0.651411
     0.383795               0.639763
     0.384088               0.627043
     0.384405               0.613048
     0.384749               0.597589
     0.385087               0.580699
     0.385416               0.562563
     0.385740               0.543368
     0.386062               0.523298
     0.386388               0.502540
     0.386719               0.481277
     0.387062               0.459696
     0.387418               0.437983
     0.387793               0.416322
     0.388190               0.394898
     0.388613               0.373898
     0.389066               0.353506
     0.389553               0.333909
     0.390077               0.315275
     0.390644               0.296835
     0.391251               0.278174
     0.391892               0.259421
     0.392564               0.240710
     0.393261               0.222172
     0.393979               0.203941
     0.394713               0.186147
     0.395458               0.168923
     0.396209               0.152402
     0.396963               0.136715
     0.397713               0.121994
     0.398456               0.108373
     0.399186              0.0959817
     0.399900              0.0849537
     0.400606              0.0754405
     0.401324              0.0674389
     0.402053              0.0607893
     0.402788              0.0553312
     0.403526              0.0509034
     0.404264              0.0473450
     0.404998              0.0444950
     0.405725              0.0421926
     0.406441              0.0402768
     0.407144              0.0385867
     0.407829              0.0369613
     0.408493              0.0352397
     0.409134              0.0332609
     0.409747              0.0308642
     0.410334              0.0280142
     0.410917              0.0251932
     0.411495              0.0224725
     0.412064              0.0198577
     0.412621              0.0173546
     0.413163              0.0149688
     0.413686              0.0127059
     0.414186              0.0105717
     0.414661             0.00857180
     0.415106             0.00671188
     0.415518             0.00499761
     0.415893             0.00343466
     0.416228             0.00202869
     0.416520            0.000785343
     0.416700                0.00000
     0.416700                0.00000
     0.416700                0.00000
     0.416700                0.00000
     0.416700                0.00000
     0.416700                0.00000
     0.416700                0.00000
     0.416700                0.00000
     0.416700                0.00000
     0.416700                0.00000
     0.416700                0.00000
     0.416700                0.00000
     0.416700                0.00000
     0.416700                0.00000
